"時間(hr)","降雨強度(mm/hr)","累積降雨(mm)","單位時間降雨(mm)","單位時間降雨百分比(%)","設計雨型(%)","設計雨型(mm)","P","Ia","Fa","Pe","超滲降雨RE (cm)","降雨逕流(cms)"
0.166666666666667,143.779578242957,23.9632630404928,23.9632630404928,0.10252786741722,0.00233477184183099,0.471623912049861,0.471623912049861,0.471623912049861,0,0,0,0
0.333333333333333,116.139359789677,38.7131199298923,14.7498568893995,0.0631079068415645,0.00235763826477996,0.476242929485551,0.947866841535412,0.947866841535412,0,0,0,0
0.5,98.7808802180308,49.3904401090154,10.6773201791231,0.0456833806750981,0.00238106843840516,0.480975824557842,1.42884266609325,1.42884266609325,0,0,0,0
0.666666666666667,86.7012248843274,57.8008165895516,8.41037648053618,0.0359841630611082,0.00240508487026365,0.485827143793257,1.91466980988651,1.91466980988651,0,0,0,0
0.833333333333333,77.7289661146618,64.7741384288848,6.97332183933322,0.0298356620211794,0.0024297113199088,0.490801686621577,2.40547149650809,2.40547149650809,0,0,0,0
1,70.7567952766407,70.7567952766407,5.98265684775593,0.0255970585914342,0.00245497288875094,0.495904523527689,2.90137602003578,2.90137602003578,0,0,0,0
1.16666666666667,65.155974592639,76.0153036914122,5.25850841477146,0.0224987578966598,0.00248089611786915,0.501141015809568,3.40251703584535,3.40251703584535,0,0,0,0
1.33333333333333,60.540832634353,80.7211101791373,4.70580648772513,0.0201339985647737,0.00250750909460139,0.506516837109481,3.90903387295483,3.90903387295483,0,0,0,0
1.5,56.6605752748849,84.9908629123274,4.26975273319005,0.0182683235331134,0.0025348415688614,0.512037996910003,4.42107186986483,4.42107186986483,0,0,0,0
1.66666666666667,53.3444821776129,88.9074702960216,3.9166073836942,0.0167573757331024,0.00256292508023715,0.517710866207905,4.93878273607273,4.93878273607273,0,0,0,0
1.83333333333333,50.4719775081551,92.5319587649511,3.6244884689295,0.015507532199171,0.00259179309706963,0.523542205608066,5.4623249416808,5.4623249416808,0,0,0,0
2,47.9552770172501,95.9105540345001,3.37859526954905,0.0144554674072321,0.00262148116885455,0.529539196108618,5.99186413778942,5.99186413778942,0,0,0,0
2.16666666666667,45.7288233653989,99.0791172916976,3.1685632571975,0.0135568362700884,0.00265202709349943,0.535709472886885,6.5275736106763,6.5275736106763,0,0,0,0
2.33333333333333,43.7425873401421,102.066037126998,2.98691983530064,0.0127796669569618,0.00268347110116182,0.542061162434688,7.06963477311099,7.06963477311099,0,0,0,0
2.5,41.9576716725976,104.894179181494,2.82814205449579,0.0121003292878116,0.00271585605663703,0.54860292344068,7.61823769655167,7.61823769655167,0,0,0,0
2.66666666666667,40.3433395797807,107.582238879415,2.68805969792109,0.0115009808076771,0.00274922768253209,0.555343991871481,8.17358168842315,8.17358168842315,0,0,0,0
2.83333333333333,38.8749542322332,110.145703657994,2.56346477857882,0.0109678960040927,0.00278363480578373,0.562294230768313,8.73587591919147,8.73587591919147,0,0,0,0
3,37.5325174941288,112.597552482386,2.45184882439246,0.0104903422697315,0.00281912963043404,0.569464185347677,9.30534010453914,9.30534010453914,0,0,0,0
3.16666666666667,36.2996129133077,114.948774225474,2.35122174308798,0.01005980490789,0.00285576804002574,0.5768651440852,9.88220524862434,9.88220524862434,0,0,0,0
3.33333333333333,35.1626275259111,117.208758419704,2.25998419422912,0.00966944107066694,0.00289360993345626,0.584509206558164,10.4667144551825,10.4667144551825,0,0,0,0
3.5,34.1101698076283,119.385594326699,2.17683590699545,0.00931368749257296,0.00293271959872909,0.592409358943276,11.0591238141258,11.0591238141258,0,0,0,0
3.66666666666667,33.1326280895571,121.486302995043,2.10070866834363,0.00898797377745227,0.00297316612973384,0.600579558206235,11.659703372332,11.659703372332,0,0,0,0
3.83333333333333,32.2218311913249,123.517019566746,2.03071657170297,0.00868850953535383,0.00301502389198078,0.609034826180117,12.2687381985121,12.2687381985121,0,0,0,0
4,31.3707845300723,125.483138120289,1.96611855354381,0.00841212409360301,0.00305837304419887,0.617791354928171,12.8865295534403,12.8865295534403,0,0,0,0
4.16666666666667,30.573462704908,127.389427937117,1.90628981682737,0.00815614423078393,0.0031033001238262,0.626866625012892,13.5133961784532,13.5133961784532,0,0,0,0
4.33333333333333,29.8246448565934,129.240127711905,1.85069977478808,0.00791829980824888,0.00314989870579198,0.636279538569981,14.1496757170232,14.1496757170232,0,0,0,0
4.5,29.1197827897902,131.039022554056,1.79889484215124,0.00769665014159151,0.0031982701456036,0.646050569411928,14.7957262864351,14.7957262864351,0,0,0,0
4.66666666666667,28.4548944488703,132.789507428061,1.75048487400542,0.00748952597877031,0.00324852441970138,0.656201932779678,15.4519282192148,15.4519282192148,0,0,0,0
4.83333333333333,27.8264772017377,134.494639808399,1.70513238033763,0.00729548335402616,0.00330078107837953,0.666757777832665,16.1186859970475,16.1186859970475,0,0,0,0
5,27.2314367366067,136.157183683033,1.6625438746342,0.00711326657249349,0.00335517032940617,0.677744406540046,16.7964304035875,16.7964304035875,0,0,0,0
5.16666666666667,26.6670283668586,137.779646562103,1.6224628790697,0.00694177828259563,0.00341183427390627,0.689190523329067,17.4856209269166,17.4856209269166,0,0,0,0
5.33333333333333,26.130808272987,139.364310789264,1.58466422716114,0.00678005509970181,0.00347092832026268,0.70112752069306,18.1867484476096,18.1867484476096,0,0,0,0
5.5,25.6205927600684,140.913260180376,1.54894939111185,0.00662724761396407,0.00353262280691644,0.71358980699712,18.9003382546067,18.9003382546067,0,0,0,0
5.66666666666667,25.1344240244317,142.428402805113,1.51514262473674,0.00648260388765455,0.0035971048712553,0.726615183993571,19.6269534386003,19.6269534386003,0,0,0,0
5.83333333333333,24.6705412397825,143.911490565398,1.48308776028523,0.00634545575023237,0.00366458060959571,0.740245283138333,20.3671987217386,20.3671987217386,0,0,0,0
6,24.2273560164215,145.364136098529,1.45264553313095,0.00621520735191179,0.00373527758296362,0.754526071758652,21.1217247934973,21.1217247934973,0,0,0,0
6.16666666666667,23.8034314757626,146.787827433869,1.42369133534029,0.00609132555220714,0.00380944773551471,0.769508442573971,21.8912332360713,21.7714285714286,0.119672956442053,0.000131708200647493,1.31708200647493e-05,0
6.33333333333333,23.3974643295292,148.183940753685,1.39611331981601,0.00597333180842834,0.00388737080770411,0.78524890315623,22.6764821392275,21.7714285714286,0.89759087128533,0.00746269651360065,0.000733098831295316,3.95348218165655e-06
6.5,23.0082694686677,149.55375154634,1.36981079265462,0.00586079529731197,0.00396935834563347,0.801810385817961,23.4782925250455,21.7714285714286,1.68051374580339,0.0263502078134994,0.00188875112998987,0.000221566595055788
6.66666666666667,22.6347666585112,150.898444390074,1.34469284373452,0.00575332705593263,0.00405575843259499,0.819263203384187,24.2975557284296,21.7714285714286,2.46883562289072,0.0572915341103561,0.00309413262968568,0.000651482593088999
6.83333333333333,22.2759690095574,152.219121565309,1.32067717523447,0.00565057496946807,0.00414696130039844,0.837686182680485,25.1352419111101,21.7714285714286,3.26298332924774,0.100830010433826,0.00435384763234694,0.00116526264849204
7,21.9309729515297,153.516810660708,1.29768909539877,0.00555221946597974,0.00424340601881346,0.857168015800319,25.9924099269105,21.7714285714286,4.0634205210819,0.157560834399979,0.00567308239661539,0.00171694642937106
7.16666666666667,21.5989494853408,154.792471311609,1.2756606509015,0.00545796980419508,0.00434558851452196,0.877808879933435,26.8702188068439,21.7714285714286,4.87065238283286,0.228137852582459,0.00705770181824796,0.00229766091709172
7.33333333333333,21.2791365255792,156.047001187581,1.25452987597205,0.00536756086085842,0.00445407124060057,0.899722390601316,27.7699411974452,21.7714285714286,5.68523111129177,0.313281514724861,0.00851436621424018,0.002907183651353
7.5,20.97083217705,157.281241327875,1.23424014029393,0.00528075034068755,0.00456949490974834,0.923037971769165,28.6929791692144,21.7714285714286,6.50776235015491,0.41378824763089,0.0100506732906029,0.00354782174727024
7.66666666666667,20.6733888141745,158.495980908671,1.21473958079633,0.00519731634526909,0.00469259282763252,0.947903751181769,29.6408829203961,21.7714285714286,7.33891278232587,0.530541566641701,0.0116753319010811,0.00422281444652129
7.83333333333333,20.3862078528051,159.69196151364,1.1959806049689,0.0051170552479691,0.00482420852894786,0.974490122847468,30.6153730432436,21.7714285714286,8.17941914247847,0.664525329336566,0.0133983762694865,0.00493586824537563
8,20.1087351211271,160.869880969017,1.1779194553765,0.00503977983069045,0.00496531764546036,1.00299416438299,31.6183672076266,21.7714285714286,9.03009898514956,0.81683965104847,0.0152314321711904,0.00569124576945635
8.16666666666667,19.8404567504987,162.030396795739,1.16051582672227,0.00496531764546036,0.0051170552479691,1.03364516008976,32.6520123677164,21.7714285714286,9.89186364052017,0.988720155767616,0.0171880504719146,0.00649387591788184
8.33333333333333,19.5808955188705,163.174129323921,1.14373252818146,0.00489350956971088,0.00528075034068755,1.06671156881888,33.7187239365352,21.7714285714286,10.7657339204973,1.18156144460933,0.0192841288841709,0.00734949149673527
8.5,19.3296075892681,164.301664508778,1.12753518485795,0.00482420852894786,0.00545796980419508,1.10250990044741,34.8212338369826,21.7714285714286,11.6528593154555,1.39694595009861,0.0215384505489284,0.0082648027392879
8.66666666666667,19.0861795940696,165.413556481936,1.11189197315784,0.00475727836453502,0.00565057496946807,1.14141614383255,35.9626499808152,21.7714285714286,12.5545416673137,1.63667974207288,0.023973379197427,0.00924771818693759
8.83333333333333,18.8502260227454,166.510329867585,1.09677338564833,0.00469259282763252,0.00586079529731197,1.18388065005702,37.1465306308722,21.7714285714286,13.4722646479726,1.902837411471,0.0266157669398117,0.0103076288134549
9,18.6213868765789,167.59248188921,1.08215202162555,0.00463003468313216,0.00609132555220714,1.23044776154584,38.3769783924181,21.7714285714286,14.4077308600592,2.19781896093025,0.029498154945925,0.0114557776901574
9.16666666666667,18.39932555884,168.660484289366,1.06800240015625,0.00456949490974834,0.00634545575023237,1.28178206154694,39.658760453965,21.7714285714286,15.362909081991,2.52442280054546,0.032660383961521,0.0127057469813105
9.33333333333333,18.1837269730913,169.714785082185,1.05430079281871,0.00451087198439247,0.00662724761396407,1.33870401802074,40.9974644719857,21.7714285714286,16.340095217052,2.88594068350518,0.0361517882959726,0.0140741083615654
9.5,17.9742958058881,170.755810155937,1.0410250737516,0.00445407124060057,0.00694177828259563,1.40223921308432,42.3997036850701,21.7714285714286,17.3419920646877,3.28628304895376,0.0400342365448573,0.0155813049351852
9.66666666666667,17.7707549731951,171.783964740886,1.02815458494931,0.00439900429219349,0.00729548335402616,1.47368763751328,43.8733913225833,21.7714285714286,18.371815426275,3.73014732487972,0.0443864275925968,0.017252867295788
9.83333333333333,17.5728442124646,172.799634755902,1.01567001501627,0.00434558851452196,0.00769665014159151,1.55472332860149,45.4281146511848,21.7714285714286,19.433437828869,4.22324825088727,0.0493100926007543,0.0191211220312149
10,17.3803188045733,173.803188045733,1.00355328983028,0.00429374657666479,0.00815614423078393,1.64754113461835,47.0756557858032,21.7714285714286,20.5315872616418,4.77263995273281,0.0549391701845547,0.0212276431300558
10.1666666666667,17.1929484117541,174.7949755195,0.991787473766948,0.00424340601881346,0.00868850953535383,1.75507892614147,48.8307347119447,21.7714285714286,21.6721285457072,5.38717759480888,0.0614537642076062,0.023626854062224
10.3333333333333,17.0105160193362,175.775332199807,0.980356680307722,0.00419449886980455,0.00931368749257296,1.88136487349974,50.7120995854444,21.7714285714286,22.8624727087465,6.07819830526934,0.069102071046046,0.0263914663771518
10.5,16.8328169705533,176.74457819081,0.969245991002651,0.00414696130039844,0.01005980490789,2.03208059139379,52.7441801768382,21.7714285714286,24.1121918824863,6.8605597229233,0.0782361417653966,0.0296209521092483
10.6666666666667,16.6596580849404,177.703019572697,0.958441381887496,0.0041007333084517,0.0109678960040927,2.21551499282672,54.9596951696649,21.7714285714286,25.4339784165995,7.75428818163682,0.0893728458713515,0.0334552321002735
10.8333333333333,16.4908568519318,178.650949229261,0.947929656563275,0.00405575843259499,0.0121003292878116,2.44426651613794,57.4039616858028,21.7714285714286,26.8452103689259,8.78732274544838,0.103303456381157,0.0380977629755782
11,16.3262406922274,179.588647614501,0.937698385240566,0.00401198349143143,0.0135568362700884,2.73848092655785,60.1424426123607,21.7714285714286,28.3706530396822,10.0003610012499,0.121303825580152,0.0438565358781874
11.1666666666667,16.1656462803257,180.516383463637,0.927735849135729,0.00396935834563347,0.015507532199171,3.13252150423254,63.2749641165932,21.7714285714286,30.0474588564184,11.4560766887462,0.145571568749635,0.0512216184675959
11.3333333333333,16.0089189223511,181.434414453313,0.918030989675657,0.00392783568061311,0.0182683235331134,3.69020135368892,66.9651654702821,21.7714285714286,31.93530008812,13.2584368107336,0.180236012198736,0.0610238550552546
11.5,15.8559119839428,182.342987815342,0.908573362029188,0.00388737080770411,0.0224987578966598,4.54474909512529,71.5099145654074,21.7714285714286,34.1395883011832,15.5988976927956,0.234046088206201,0.0747945685091908
11.6666666666667,15.7064863635329,183.242340907883,0.899353092541418,0.00384792148204275,0.0298356620211794,6.02680372827823,77.5367182936857,21.7714285714286,36.8749872945647,18.8903024276924,0.329140473489682,0.0957014236156061
11.8333333333333,15.5605100068371,184.132701747573,0.890360839689293,0.00380944773551471,0.0456833806750981,9.22804289636981,86.7647611900555,21.7714285714286,40.6958248130517,24.2975078055752,0.540720537788275,0.131519444332092
12,15.4178574588163,185.014289505796,0.881587758223333,0.00377191172333379,0.10252786741722,20.7106292182785,107.475390408334,21.7714285714286,47.9514568534855,37.7525049834199,1.34549971778447,0.207625029052164
12.1666666666667,15.2784094497526,185.88731497199,0.873025466194179,0.00373527758296362,0.0631079068415645,12.747797181996,120.22318759033,21.7714285714286,51.6966570131448,46.7551020057566,0.900259702233671,0.476396937544084
12.3333333333333,15.1420525124258,186.751980986584,0.864666014594434,0.00369951130422892,0.0359841630611082,7.26880093834385,127.491988528674,21.7714285714286,53.6329634778405,52.0875964794048,0.53324944736482,0.441448561704538
12.5,15.0086786276769,187.608482845962,0.856501859377232,0.00366458060959571,0.0255970585914342,5.17060583546971,132.662594364144,21.7714285714286,54.9323703579754,55.9587954347395,0.387119895533475,0.302991795560732
12.6666666666667,14.8781848959155,188.457008681597,0.848525835634831,0.00363045484369331,0.0201339985647737,4.06706771008428,136.729662074228,21.7714285714286,55.9122659512625,59.0459675515367,0.308717211679716,0.210270551017988
12.8333333333333,14.7504732323643,189.297739815341,0.840731133744924,0.0035971048712553,0.0167573757331024,3.38498989808669,140.114651972315,21.7714285714286,56.701075742521,61.6421476583649,0.259618010682821,0.158605079115016
13,14.6254500840501,190.130851092652,0.833111277310167,0.00356450298273282,0.0144554674072321,2.92000441626088,143.034656388575,21.7714285714286,57.362885672095,63.9003421450518,0.225819448668687,0.128145693910241
13.1666666666667,14.5030261667383,190.956511195387,0.825660102735782,0.00353262280691644,0.0127796669569618,2.58149272530628,145.616149113882,21.7714285714286,57.9341404458051,65.910580096648,0.20102379515962,0.108887563859133
13.3333333333333,14.3831162201768,191.774882935691,0.818371740303519,0.00350143922996029,0.0115009808076771,2.32319812315078,147.939347237032,21.7714285714286,58.4375089923793,67.7304096732245,0.181982957657655,0.0955818297690564
13.5,14.2656387801708,192.586123532305,0.811240596614425,0.00347092832026268,0.0104903422697315,2.11904913848577,150.058396375518,21.7714285714286,58.8880438228923,69.3989239811974,0.166851430797284,0.0857148062658101
13.6666666666667,14.150515966141,193.390384870593,0.804261338287887,0.00344106725872174,0.00966944107066694,1.95322709627472,152.011623471793,21.7714285714286,59.2962499498426,70.9439449505217,0.154502096932438,0.0780544684350354
13.8333333333333,14.0376732829448,194.187813747403,0.797428876809477,0.00341183427390627,0.00898797377745227,1.81557070304536,153.827194174838,21.7714285714286,59.669751335693,72.3860142677167,0.144206931719496,0.0719068019615003
14,13.9270394358456,194.978552101839,0.790738354436144,0.0033832085817505,0.00841212409360301,1.69924906690781,155.526443241746,21.7714285714286,60.0142585112536,73.7407561590639,0.135474189134719,0.06684643683375
14.1666666666667,13.8185461576173,195.762737232912,0.784185131073087,0.00335517032940617,0.00791829980824888,1.59949656126627,157.125939803012,21.7714285714286,60.3341614489127,75.020349782671,0.127959362360716,0.0625965452866921
14.3333333333333,13.7121280468573,196.540502004954,0.77776477204236,0.00332770054291002,0.00748952597877031,1.5128842477116,158.638824050724,21.7714285714286,60.6329092041085,76.234486275187,0.121413649251591,0.0589685210375766
14.5,13.6077224166642,197.31197504163,0.771473036676127,0.00330078107837953,0.00711326657249349,1.43687984764369,160.075703898368,21.7714285714286,60.913262141121,77.391013185818,0.115652691063107,0.0558290818594052
14.6666666666667,13.5052691529067,198.077280909298,0.765305867667166,0.00327439457644856,0.00678005509970181,1.36957113013977,161.445275028507,21.7714285714286,61.1774648269781,78.4963816301008,0.110536844428273,0.0530811752333387
14.8333333333333,13.4047105813765,198.836540290418,0.75925938112016,0.00324852441970138,0.00648260388765455,1.30948598530622,162.754761013814,21.7714285714286,61.4273677704045,79.5559646719805,0.105958304187976,0.0506523331606688
15,13.3059913431778,199.589870147667,0.753329857249355,0.0032231546928722,0.00621520735191179,1.25547188508618,164.0102328989,21.7714285714286,61.6645151628855,80.5742891645858,0.101832449260525,0.0484872754649804
15.1666666666667,13.2090582777588,200.337383879341,0.747513731674303,0.0031982701456036,0.00597333180842834,1.20661302530252,165.216845924202,21.7714285714286,61.890209421504,81.5552079312697,0.0980918766683971,0.0465430484801335
15.3333333333333,13.1138603130398,201.07919146661,0.741807587268113,0.00317385615756897,0.00575332705593263,1.16217206529839,166.379017989501,21.7714285714286,62.1055595317212,82.502029886351,0.0946821955081248,0.0447857355045453
15.5,13.0203483621373,201.815399613129,0.736208146519232,0.00314989870579198,0.00555221946597974,1.12154833212791,167.500566321629,21.7714285714286,62.3115178425063,83.4176199076937,0.0915590021342737,0.0431881738892793
15.6666666666667,12.9284752262231,202.546111877496,0.730712264366986,0.0031263843339932,0.00536756086085842,1.0842472938934,168.584813615522,21.7714285714286,62.5089084779424,84.3044765661511,0.0886856658457333,0.0417283352819629
15.8333333333333,12.8381955030931,203.271428798975,0.725316921478765,0.0031033001238262,0.00519731634526909,1.04985790174436,169.634671517266,21.7714285714286,62.6984495614941,85.1647933843437,0.0860316818192686,0.0403881536981759
16,12.7494655010569,203.99144801691,0.720019217935743,0.00308063366786163,0.00503977983069045,1.01803552579947,170.652707043066,21.7714285714286,62.8807708054793,86.000507666158,0.0835714281814248,0.0391526627087678
16.1666666666667,12.6622431577861,204.706264384209,0.714816367298994,0.00305837304419887,0.00489350956971088,0.988488933081598,171.641195976147,21.7714285714286,63.0564275816156,86.8133398231032,0.0812832156945248,0.0380093502080773
16.3333333333333,12.5764879637901,205.415970075239,0.709705691029541,0.00303650679259192,0.00475727836453502,0.960970229636075,172.602166205784,21.7714285714286,63.2259122868414,87.6048253475135,0.0791485524410277,0.0369476690457103
