"時間(hr)","降雨強度(mm/hr)","累積降雨(mm)","單位時間降雨(mm)","單位時間降雨百分比(%)","設計雨型(%)","設計雨型(mm)","P","Ia","Fa","Pe","超滲降雨RE (cm)","降雨逕流(cms)"
0.166666666666667,121.113746153448,20.185624358908,20.185624358908,0.134797234658737,0.00181492237526108,0.254089132536551,0.254089132536551,0.254089132536551,0,0,0,0
0.333333333333333,96.2863711869649,32.0954570623216,11.9098327034136,0.0795324675186416,0.00183494841119459,0.256892777567242,0.510981910103793,0.510981910103793,0,0,0,0
0.5,80.7939080803561,40.3969540401781,8.30149697785644,0.0554364242713695,0.00185549659149305,0.259769522809027,0.770751432912821,0.770751432912821,0,0,0,0
0.666666666666667,70.0934844270747,46.7289896180498,6.33203557787169,0.0422845917709339,0.00187658858840199,0.262722402376279,1.0334738352891,1.0334738352891,0,0,0,0
0.833333333333333,62.20481170351,51.8373430862583,5.10835346820858,0.034112986000852,0.00189824731718347,0.265754624405686,1.29922845969479,1.29922845969479,0,0,0,0
1,56.1180738199867,56.1180738199867,4.28073073372835,0.0285862183386269,0.00192049702765647,0.268869583871905,1.56809804356669,1.56809804356669,0,0,0,0
1.16666666666667,51.2609927319705,59.8044915206323,3.68641770064557,0.0246174655293608,0.00194336340400986,0.272070876561381,1.84016892012807,1.84016892012807,0,0,0,0
1.33333333333333,47.2835209828439,63.0446946437919,3.24020312315967,0.0216376968563659,0.00196687367378326,0.275362314329656,2.11553123445773,2.11553123445773,0,0,0,0
1.5,43.9587706139321,65.9381559208981,2.89346127710621,0.0193221954303303,0.00199105672701344,0.278747941781882,2.39427917623961,2.39427917623961,0,0,0,0
1.66666666666667,41.1328263913929,68.5547106523214,2.61655473142329,0.0174730459587417,0.00201594324667911,0.282232054535075,2.67651123077468,2.67651123077468,0,0,0,0
1.83333333333333,38.6973621751927,70.9451639878532,2.39045333553182,0.0159631673254756,0.00204156585171924,0.285819219240693,2.96233045001538,2.96233045001538,0,0,0,0
2,36.5737870679639,73.1475741359278,2.20241014807458,0.0147074369494932,0.00206795925406911,0.289514295569675,3.25184474558505,3.25184474558505,0,0,0,0
2.16666666666667,34.7036108248599,75.1911567871965,2.04358265126871,0.0136468055329697,0.00209516043135472,0.293322460389661,3.54516720597471,3.54516720597471,0,0,0,0
2.33333333333333,33.042347180398,77.0988100875952,1.90765330039869,0.0127390852524152,0.00212320881710097,0.297249234394135,3.84241644036885,3.84241644036885,0,0,0,0
2.5,31.5555214380936,78.888803595234,1.78999350763878,0.0119533669405832,0.00215214651058011,0.301300511481215,4.14371695185006,4.14371695185006,0,0,0,0
2.66666666666667,30.2159779544866,80.5759412119643,1.68713761673027,0.0112665073509907,0.0021820185087124,0.305482591219735,4.4491995430698,4.4491995430698,0,0,0,0
2.83333333333333,29.0020172751431,82.1723822795721,1.59644106760778,0.0106608464213397,0.00221287296279005,0.309802214790606,4.75900175786041,4.75900175786041,0,0,0,0
3,27.8960780690235,83.6882342070705,1.51585192749843,0.0101226815849633,0.00224476146319165,0.314266604846832,5.07326836270724,5.07326836270724,0,0,0,0
3.16666666666667,26.8837858686083,85.1319885839264,1.44375437685589,0.00964122258822967,0.00227773935573351,0.318883509802692,5.39215187250993,5.39215187250993,0,0,0,0
3.33333333333333,25.9532543111278,86.5108477037594,1.37885911983297,0.0092078596645162,0.00231186609385891,0.323661253140247,5.71581312565018,5.71581312565018,0,0,0,0
3.5,25.0945636699029,87.8309728446602,1.32012514090081,0.00881564103407958,0.00234720563150675,0.328608788410945,6.04442191406112,6.04442191406112,0,0,0,0
3.66666666666667,24.2993661002004,89.0976757007349,1.26670285607476,0.00845889327460165,0.00238382686229014,0.333735760720619,6.37815767478174,6.37815767478174,0,0,0,0
3.83333333333333,23.5605829180036,90.3155678523473,1.21789215161236,0.00813294110853092,0.00242180411149699,0.339052575609579,6.71721025039132,6.71721025039132,0,0,0,0
4,22.8721697043104,91.4886788172417,1.17311096489446,0.00783389758988715,0.00246121768851714,0.344570476392399,7.06178072678372,7.06178072678372,0,0,0,0
4.16666666666667,22.2289320641465,92.6205502672771,1.13187145003535,0.00755850494099822,0.00250215450858073,0.350301631201302,7.41208235798502,7.41208235798502,0,0,0,0
4.33333333333333,21.6263796801755,93.7143119474273,1.09376168015017,0.00730401236238565,0.00254470879420485,0.356259231188678,7.7683415891737,7.7683415891737,0,0,0,0
4.5,21.0606096428307,94.772743392738,1.05843144531076,0.00706808119317739,0.00258898286859672,0.36245760160354,8.13079919077724,8.13079919077724,0,0,0,0
4.66666666666667,20.5282123950539,95.7983245102513,1.0255811175133,0.00684871055266625,0.00263508805544695,0.368912327762574,8.49971151853981,8.49971151853981,0,0,0,0
4.83333333333333,20.0261953135144,96.793277348653,0.994952838401645,0.00664417849295888,0.00268314570221111,0.375640398309555,8.87535191684937,8.87535191684937,0,0,0,0
5,19.5519201666438,97.7596008332192,0.96632348456626,0.00645299502206597,0.00273328834720765,0.382660368609071,9.25801228545844,9.25801228545844,0,0,0,0
5.16666666666667,19.1030515818725,98.6990998396744,0.939499006455179,0.00627386429981304,0.00278566105477028,0.389992547667839,9.64800483312628,9.64800483312628,0,0,0,0
5.33333333333333,18.6775143146319,99.6134096780368,0.914309838362357,0.00610565398628028,0.00284042294750311,0.397659212650435,10.0456640457767,10.0456640457767,0,0,0,0
5.5,18.2734576052171,100.504016828694,0.89060715065753,0.00594737021463264,0.00289774897058353,0.405684855881694,10.4513489016584,10.4513489016584,0,0,0,0
5.66666666666667,17.8892252820433,101.372276598245,0.868259769550818,0.00579813702166874,0.00295783193033809,0.414096470247333,10.8654453719057,10.8654453719057,0,0,0,0
5.83333333333333,17.5233305533876,102.219428228094,0.847151629849094,0.00565717933762629,0.0030208848583482,0.422923880168749,11.2883692520745,11.2883692520745,0,0,0,0
6,17.1744346473891,103.046607884334,0.827179656240219,0.0055238088376464,0.00308714376363165,0.43220012690843,11.7205693789829,11.7205693789829,0,0,0,0
6.16666666666667,16.841328628493,103.854859875707,0.808251991372288,0.00539741210909446,0.00315687084958601,0.441961918942041,12.162531297925,12.162531297925,0,0,0,0
6.33333333333333,16.5229178497933,104.645146382024,0.790286506317685,0.00527744070461349,0.00323035829024167,0.452250160633834,12.6147814585588,12.6147814585588,0,0,0,0
6.5,16.2182086037444,105.418355924338,0.773209542314007,0.00516340273961754,0.00330793268307053,0.463110575629874,13.0778920341887,13.0778920341887,0,0,0,0
6.66666666666667,15.9262966150959,106.175310767306,0.756954842967446,0.0050548557616709,0.00338996032458982,0.474594445442575,13.5524864796312,13.5037974683544,0.0486539261599752,3.50851168349556e-05,3.50851168349556e-06,0
6.83333333333333,15.6463570846,106.916773411433,0.74146264412731,0.0049514006727768,0.00347685349236274,0.486759488930783,14.039245968562,13.5037974683544,0.531235621313991,0.00421287889360045,0.000417779377676549,2.61376960192494e-06
7,15.3776360437662,107.643452306363,0.726678894930075,0.00485267652760087,0.00356907796544153,0.499670915161814,14.5389168837238,13.5037974683544,1.0194898308739,0.0156295844955063,0.00114167056019059,0.0003135872689099
7.16666666666667,15.1194428225363,108.356006894844,0.712554588480288,0.00475835606383659,0.00366716207862112,0.513402691006957,15.0523195747308,13.5037974683544,1.51380360077082,0.034718505605541,0.00190889211100347,0.00113108129571697
7.33333333333333,14.8711434653759,109.055052079423,0.69904518457966,0.0046681418472578,0.00377170768935191,0.528039076509268,15.5803586512401,13.5037974683544,2.01460166912823,0.0619595137574005,0.00272410081518595,0.00227190769583464
7.5,14.6321549585986,109.741162189489,0.686110110066224,0.00458176293504216,0.00388340354716853,0.543676496603594,16.1240351478437,13.5037974683544,2.52235171774765,0.0978859617415773,0.00359264479841768,0.0035663601164792
7.66666666666667,14.401940154045,110.414874514345,0.673712324855344,0.00449897197784385,0.0040030417044722,0.560425838626108,16.6844609864698,13.5037974683544,3.03757058494769,0.143092933167646,0.00452069714260692,0.0049691404550119
7.83333333333333,14.1800032925314,111.076692458163,0.66181794381805,0.00441954269474135,0.00413153780954359,0.578415293336103,17.2628762798059,13.5037974683544,3.56083166091389,0.198247150537544,0.00551542173698971,0.00647334207005631
8,13.9658860455562,111.727088364449,0.650395906286661,0.00434326766623473,0.00426995639950286,0.597793895930401,17.8606701757363,13.5037974683544,4.09277374876976,0.264098958612074,0.00658518080745303,0.00808387788705389
8.16666666666667,13.759164006218,112.36650605078,0.639417686330802,0.00426995639950286,0.00441954269474135,0.618735977263789,18.4794061530001,13.5037974683544,4.63411175743054,0.34149692721509,0.0077397968603016,0.00981166190810462
8.33333333333333,13.5594435706597,112.99536308883,0.628857038050185,0.00419943362749841,0.00458176293504216,0.641446810905903,19.120852963906,13.5037974683544,5.18564970415145,0.431405791400078,0.00899088641849879,0.0116715943386045
8.5,13.366359159985,113.614052859872,0.61868977104173,0.00413153780954359,0.00475835606383659,0.666169848937122,19.7870228128431,13.5037974683544,5.74829665749314,0.534928686995505,0.0103522895595427,0.0136812168623293
8.66666666666667,13.1795707398253,114.222946411819,0.608893551947276,0.00406611980608903,0.0049514006727768,0.693196094188752,20.4802189070318,13.5037974683544,6.3230864629143,0.653334975763106,0.0118406288767601,0.0158613266529872
8.83333333333333,12.9987616008037,114.822394140433,0.599447728613185,0.0040030417044722,0.00516340273961754,0.722876383546455,21.2030952905783,13.5037974683544,6.91120239002866,0.788095432195197,0.0134760456432091,0.0182367700285377
9,12.82363636826,115.41272731434,0.590333173907467,0.00394217577594647,0.00539741210909446,0.755637695273224,21.9587329858515,13.5037974683544,7.51400826358325,0.940927253913835,0.0152831821718638,0.0208374801514669
9.16666666666667,12.6539192139291,115.994259461017,0.581532146676821,0.00388340354716853,0.00565717933762629,0.79200510726768,22.7507380931192,13.5037974683544,8.13308825323871,1.11385237152605,0.0172925117612212,0.0236998509501863
9.33333333333333,12.4893522459323,116.567287628702,0.573028167684768,0.00382661497172777,0.00594737021463264,0.83263183004857,23.5833699231678,13.5037974683544,8.77029840207115,1.30927405274218,0.019542168121613,0.0268685814248976
9.5,12.3296940565664,117.132093537381,0.564805908679133,0.00377170768935191,0.00627386429981304,0.878341001973826,24.4617109251416,13.5037974683544,9.42783433663106,1.5300791201561,0.022080506741392,0.0303991892632341
9.66666666666667,12.1747184100388,117.688944630375,0.556851092994208,0.00371858636213992,0.00664417849295888,0.930184989014243,25.3918959141558,13.5037974683544,10.1083217010014,1.77977674480005,0.0249697624643948,0.0343614948024566
9.83333333333333,12.0242130545781,118.238095036685,0.549150406309764,0.00366716207862112,0.00706808119317739,0.989531367044835,26.3814272812007,13.5037974683544,10.8149391740377,2.06269063880855,0.0282913894008503,0.0388445413528476
10,11.877978645306,118.77978645306,0.541691416374931,0.00361735181768069,0.00755850494099822,1.05819069173975,27.4396179729404,13.5037974683544,11.5515893183513,2.38423118623467,0.0321540547426118,0.0439636917953692
10.1666666666667,11.7358277659399,119.314248953722,0.534462500662201,0.00356907796544153,0.00813294110853092,1.13861175519433,28.5782297281348,13.5037974683544,12.3231415510174,2.75129070876288,0.0367059522528214,0.0498711101912266
10.3333333333333,11.5975840388489,119.841701734772,0.527452781050243,0.00352226787908381,0.00881564103407958,1.23418974477114,29.8124194729059,13.5037974683544,13.1357872576065,3.17283474694491,0.0421544038182034,0.0567716677981868
10.5,11.4630813142403,120.362353799523,0.520652064750962,0.00347685349236274,0.00964122258822967,1.34977116235215,31.162190635258,13.5037974683544,13.9975756191606,3.66081754774306,0.0487982800798145,0.0649478437402325
10.6666666666667,11.3321629303422,120.876404590317,0.51405079079376,0.00343277095823677,0.0106608464213397,1.49251849898756,32.6547091342456,13.5037974683544,14.9192531335288,4.2316585323624,0.0570840984619345,0.0748001428052599
10.8333333333333,11.2046810373953,121.384044571782,0.507639981465573,0.00338996032458982,0.0119533669405832,1.67347137168165,34.3281805059273,13.5037974683544,15.915639721199,4.90874331637386,0.0677084784011459,0.0869155555925754
11,11.0804959790873,121.88545576996,0.501411198177792,0.00334836523951578,0.0136468055329697,1.91055277461575,36.238733280543,13.5037974683544,17.008012390781,5.72692342140754,0.0818180105033678,0.102189580396079
11.1666666666667,10.9594757257842,122.380812271257,0.495356501296655,0.00330793268307053,0.0159631673254756,2.23484342556658,38.4735767061096,13.5037974683544,18.2285294812659,6.74124975648923,0.101432633508169,0.122057659009657
11.3333333333333,10.8414953545396,122.870280684783,0.489468413525671,0.00326861272274409,0.0193221954303303,2.70510736024624,41.1786840663558,13.5037974683544,19.6292076428955,8.04567895510587,0.130442919861664,0.148969584277797
11.5,10.7264365714141,123.354020571262,0.483739886479015,0.00323035829024167,0.0246174655293608,3.44644517411052,44.6251292404663,13.5037974683544,21.302453447604,9.81887832450794,0.177319936940207,0.187464436059846
11.6666666666667,10.6141872721189,123.832184841387,0.478164270125802,0.0031931249774361,0.034112986000852,4.77581804011929,49.4009472805856,13.5037974683544,23.4367601660503,12.4603896461809,0.264151132167299,0.246958394896094
11.8333333333333,10.504641137426,124.304920126207,0.472735284819876,0.00315687084958601,0.0554364242713695,7.76109939799173,57.1620466785774,13.5037974683544,26.5140676923587,17.1441815178642,0.468379187168327,0.350525370730127
12,10.3976972601559,124.772367121871,0.46744699566365,0.00312155627414061,0.134797234658737,18.8716128522233,76.0336595308006,13.5037974683544,32.4643623101529,30.0654997522932,1.2921318234429,0.572667233135725
12.1666666666667,10.293259800892,125.234660910852,0.462293788981484,0.00308714376363165,0.0795324675186416,11.1345454526098,87.1682049834104,13.5037974683544,35.2289743676444,38.4354331474116,0.83699333951184,1.34444425546884
12.3333333333333,10.1912376698558,125.691931261554,0.457270350701847,0.003053597831312,0.0422845917709339,5.91984284793075,93.0880478313412,13.5037974683544,36.5284141716012,43.0558361913856,0.462040304397396,1.60523899477276
12.5,10.0915442326419,126.144302908024,0.452371646469658,0.0030208848583482,0.0285862183386269,4.00207056740776,97.0901183987489,13.5037974683544,37.3492090342677,46.2371118961268,0.318127570474122,1.20325793732206
12.6666666666667,9.9940970377384,126.591895811353,0.447592903329152,0.00298897297150086,0.0216376968563659,3.02927755989123,100.11939595864,13.5037974683544,37.9421494954916,48.6734489947941,0.243633709866732,0.808982469747835
12.8333333333333,9.89881756396266,127.034825404187,0.442929592834332,0.00295783193033809,0.0174730459587417,2.44622643422384,102.565622392864,13.5037974683544,38.4042217094055,50.657603215104,0.198415422030989,0.56987484382061
13,9.80563098612655,127.473202819645,0.438377415457708,0.00292743302311905,0.0147074369494932,2.05904117292905,104.624663565793,13.5037974683544,38.7821122575722,52.3387538398664,0.16811506247624,0.429997624792071
13.1666666666667,9.71446595740467,127.907135105828,0.433932286182994,0.00289774897058353,0.0127390852524152,1.78347193533812,106.408135501131,13.5037974683544,39.1015883069704,53.8027497258063,0.146399588593988,0.342459355828596
13.3333333333333,9.62525440702541,128.336725427005,0.429590321177329,0.0028687538369507,0.0112665073509907,1.57731102913869,107.98544653027,13.5037974683544,39.3782728800195,55.103376181896,0.130062645608965,0.286733350606415
13.5,9.53793135203371,128.762073252455,0.425347825449649,0.00284042294750311,0.0101226815849633,1.41717542189487,109.402621952165,13.5037974683544,39.6223119382118,56.2765125455985,0.117313636370259,0.248569948890819
13.6666666666667,9.45243472199021,129.183274533866,0.421201281411072,0.00281273281219431,0.0092078596645162,1.28910035303227,110.691722305197,13.5037974683544,39.840648944446,57.3472758923966,0.107076334679807,0.220412790374408
13.8333333333333,9.36870519557546,129.600421872127,0.417147338260975,0.00278566105477028,0.00845889327460165,1.18424505844423,111.875967363641,13.5037974683544,40.0382359407567,58.3339339545301,0.0986658062133507,0.198655857241184
14,9.28668604816121,130.013604674257,0.413182802129796,0.00275918634694428,0.00783389758988715,1.0967456625842,112.972713026225,13.5037974683544,40.2187244335173,59.2501911243537,0.0916257169823552,0.181280249648567
14.1666666666667,9.20632300949457,130.422909301173,0.409304626916082,0.00273328834720765,0.00730401236238565,1.02256173073399,113.995274756959,13.5037974683544,40.3848819651352,60.1065953234698,0.0856404199116092,0.167049699942355
14.3333333333333,9.12756413071639,130.828419206935,0.405509905761846,0.00270794764390331,0.00684871055266625,0.958819477373275,114.954094234333,13.5037974683544,40.5388549719666,60.9114417940117,0.080484647054189,0.155159434845457
14.5,9.05035966000335,131.230215070049,0.401795863113733,0.00268314570221111,0.00645299502206597,0.903419303089236,115.857513537422,13.5037974683544,40.6823410759337,61.6713749931338,0.0759933199122109,0.145061005092028
14.6666666666667,8.97466192618452,131.628374917373,0.398159847324393,0.0026588648147407,0.00610565398628028,0.854791558079239,116.712305095501,13.5037974683544,40.816705717548,62.3918019095988,0.0720426916464987,0.136366872829245
14.8333333333333,8.90042522973872,132.022974241124,0.394599323751407,0.00263508805544695,0.00579813702166874,0.811739183033624,117.524044278535,13.5037974683544,40.9430633311746,63.0771834790057,0.0685381569406985,0.128794988417765
15,8.82760574062921,132.414086109438,0.391111868313715,0.00261179923660053,0.0055238088376464,0.773333237270496,118.297377515805,13.5037974683544,41.0623352198126,63.7312448276383,0.0654061348632531,0.122134940546193
15.1666666666667,8.75616140247766,132.801781270911,0.387695161473061,0.00258898286859672,0.00527744070461349,0.738841698645889,119.036219214451,13.5037974683544,41.1752916984527,64.3571300476441,0.0625885220005792,0.11622642383034
15.3333333333333,8.68605184262062,133.186128253516,0.384346982605024,0.00256662412236576,0.0050548557616709,0.707679806633925,119.743899021085,13.5037974683544,41.2825833604745,64.9575181922562,0.0600388144612111,0.110945069059076
15.5,8.61723828762896,133.567193458249,0.381065204732664,0.00254470879420485,0.00485267652760087,0.679374713864122,120.423273734949,13.5037974683544,41.3847646631466,65.5347116034482,0.057719341119207,0.106192845468391
15.6666666666667,8.5496834839049,133.945041247843,0.377847789594568,0.00252322327284305,0.0046681418472578,0.653539858616092,121.076813593565,13.5037974683544,41.4823119860182,66.0907041391927,0.0555992535744451,0.101891395663154
15.8333333333333,8.48335162300212,134.319734030867,0.374692783023534,0.00250215450858073,0.00449897197784385,0.629856076898139,121.706669670463,13.5037974683544,41.5756376441783,66.6272345579308,0.0536530418738067,0.0979773050338919
16,8.41820827134242,134.691332341479,0.371598310611688,0.0024814899843417,0.00434326766623473,0.608057473272862,122.314727143736,13.5037974683544,41.6651008954076,67.1458287799743,0.0518594222043532,0.0943986788751689
16.1666666666667,8.3542203040282,135.059894915123,0.368562573643914,0.00246121768851714,0.00419943362749841,0.587920707849778,122.902647851586,13.5037974683544,41.7510166821687,67.647833701063,0.0502004921088684,0.0911126228349838
16.3333333333333,8.29135584247349,135.4254787604,0.365583845277826,0.0024413260894559,0.00406611980608903,0.569256772852464,123.471904624439,13.5037974683544,41.8336626450323,68.1344445110518,0.0486610809988846,0.088083359517424
